# File created with ds-4.00-pre3                                      
#u [km/s]       u*DF [(km/s)^-2]
 0.00000000E+00 0.10000000E-21
 0.38118703E+01 0.30037213E-06
 0.40501121E+01 0.31914017E-06
 0.42883540E+01 0.33790727E-06
 0.47648378E+01 0.37543840E-06
 0.52413216E+01 0.41296506E-06
 0.57178054E+01 0.45048683E-06
 0.61942892E+01 0.48800328E-06
 0.66707729E+01 0.52551392E-06
 0.71472567E+01 0.56301831E-06
 0.76237405E+01 0.60051602E-06
 0.81002243E+01 0.63800662E-06
 0.85767081E+01 0.67548965E-06
 0.95296756E+01 0.75043121E-06
 0.10482643E+02 0.82533714E-06
 0.11435611E+02 0.90020388E-06
 0.12388578E+02 0.97502795E-06
 0.13341546E+02 0.10498057E-05
 0.14294513E+02 0.11245338E-05
 0.15247481E+02 0.11992083E-05
 0.16200449E+02 0.12738261E-05
 0.17153416E+02 0.13483834E-05
 0.19059351E+02 0.14973024E-05
 0.20965286E+02 0.16459397E-05
 0.22871222E+02 0.17942563E-05
 0.24777157E+02 0.19424377E-05
 0.26683092E+02 0.20906314E-05
 0.28589027E+02 0.22386588E-05
 0.30494962E+02 0.23864591E-05
 0.32400897E+02 0.25339895E-05
 0.34306832E+02 0.26812140E-05
 0.38118703E+02 0.29746178E-05
 0.41930573E+02 0.32664301E-05
 0.45742443E+02 0.35564265E-05
 0.49554313E+02 0.38443940E-05
 0.53366184E+02 0.41301232E-05
 0.57178054E+02 0.44134041E-05
 0.60989924E+02 0.46940295E-05
 0.64801794E+02 0.49717955E-05
 0.68613665E+02 0.52464989E-05
 0.72425535E+02 0.55179366E-05
 0.76237405E+02 0.57859055E-05
 0.80049275E+02 0.60502025E-05
 0.83861146E+02 0.63106274E-05
 0.87673016E+02 0.65669824E-05
 0.91484886E+02 0.68190697E-05
 0.95296756E+02 0.70666903E-05
 0.99108627E+02 0.73096465E-05
 0.10292050E+03 0.75477438E-05
 0.10673237E+03 0.77807897E-05
 0.11054424E+03 0.80085942E-05
 0.11435611E+03 0.82309690E-05
 0.11816798E+03 0.84477281E-05
 0.12197985E+03 0.86586890E-05
 0.12579172E+03 0.88636723E-05
 0.12960359E+03 0.90625025E-05
 0.13341546E+03 0.92550082E-05
 0.13722733E+03 0.94410227E-05
 0.14103920E+03 0.96203839E-05
 0.14485107E+03 0.97929352E-05
 0.14866294E+03 0.99585256E-05
 0.15247481E+03 0.10117010E-04
 0.15628668E+03 0.10268251E-04
 0.16009855E+03 0.10412116E-04
 0.16391042E+03 0.10548484E-04
 0.16772229E+03 0.10677237E-04
 0.17153416E+03 0.10798270E-04
 0.17534603E+03 0.10911484E-04
 0.17915790E+03 0.11016791E-04
 0.18296977E+03 0.11114112E-04
 0.18678164E+03 0.11203375E-04
 0.19059351E+03 0.11284524E-04
 0.19440538E+03 0.11357509E-04
 0.19821725E+03 0.11422292E-04
 0.20202912E+03 0.11478847E-04
 0.20584099E+03 0.11527160E-04
 0.20965286E+03 0.11567226E-04
 0.21346473E+03 0.11599055E-04
 0.21727660E+03 0.11622665E-04
 0.22108847E+03 0.11638092E-04
 0.22490034E+03 0.11645376E-04
 0.22871222E+03 0.11644577E-04
 0.23252409E+03 0.11635762E-04
 0.23633596E+03 0.11619012E-04
 0.24014783E+03 0.11594421E-04
 0.24395970E+03 0.11562092E-04
 0.24777157E+03 0.11522142E-04
 0.25158344E+03 0.11474700E-04
 0.25539531E+03 0.11419903E-04
 0.25920718E+03 0.11357904E-04
 0.26301905E+03 0.11288861E-04
 0.26683092E+03 0.11212947E-04
 0.27064279E+03 0.11130342E-04
 0.27445466E+03 0.11041236E-04
 0.27826653E+03 0.10945828E-04
 0.28207840E+03 0.10844326E-04
 0.28589027E+03 0.10736945E-04
 0.28970214E+03 0.10623907E-04
 0.29351401E+03 0.10505439E-04
 0.29732588E+03 0.10381776E-04
 0.30113775E+03 0.10253155E-04
 0.30494962E+03 0.10119817E-04
 0.30876149E+03 0.99820033E-05
 0.31257336E+03 0.98399523E-05
 0.31638523E+03 0.96938888E-05
 0.32019710E+03 0.95439396E-05
 0.32400897E+03 0.93905724E-05
 0.32782084E+03 0.92341828E-05
 0.33163271E+03 0.90750125E-05
 0.33544458E+03 0.89133036E-05
 0.33925645E+03 0.87492975E-05
 0.34306832E+03 0.85832335E-05
 0.34688019E+03 0.84153510E-05
 0.35069206E+03 0.82458869E-05
 0.35450393E+03 0.80750774E-05
 0.35831580E+03 0.79031529E-05
 0.36212767E+03 0.77303398E-05
 0.36593954E+03 0.75568600E-05
 0.36975141E+03 0.73829336E-05
 0.37356328E+03 0.72087764E-05
 0.37737515E+03 0.70345994E-05
 0.38118703E+03 0.68606060E-05
 0.38499890E+03 0.66869957E-05
 0.38881077E+03 0.65139626E-05
 0.39262264E+03 0.63416987E-05
 0.39643451E+03 0.61703904E-05
 0.40024638E+03 0.60002169E-05
 0.40405825E+03 0.58313602E-05
 0.40787012E+03 0.56640086E-05
 0.41168199E+03 0.54983675E-05
 0.41549386E+03 0.53347201E-05
 0.41930573E+03 0.51735899E-05
 0.42311760E+03 0.50140732E-05
 0.42692947E+03 0.48561856E-05
 0.43074134E+03 0.47000656E-05
 0.43455321E+03 0.45458462E-05
 0.43836508E+03 0.43936544E-05
 0.44217695E+03 0.42436107E-05
 0.44598882E+03 0.40958285E-05
 0.44980069E+03 0.39504146E-05
 0.45361256E+03 0.38074689E-05
 0.45742443E+03 0.36670842E-05
 0.46123630E+03 0.35293462E-05
 0.46504817E+03 0.33943335E-05
 0.46886004E+03 0.32621173E-05
 0.47267191E+03 0.31327625E-05
 0.47648378E+03 0.30063259E-05
 0.48029565E+03 0.28828580E-05
 0.48410752E+03 0.27624019E-05
 0.48791939E+03 0.26449939E-05
 0.49173126E+03 0.25306637E-05
 0.49554313E+03 0.24194340E-05
 0.49935500E+03 0.23113214E-05
 0.50316687E+03 0.22063357E-05
 0.50697874E+03 0.21044809E-05
 0.51079061E+03 0.20057547E-05
 0.51460248E+03 0.19101495E-05
 0.51841435E+03 0.18176513E-05
 0.52222622E+03 0.17282417E-05
 0.52603809E+03 0.16418965E-05
 0.52984996E+03 0.15585872E-05
 0.53366184E+03 0.14782801E-05
 0.53747371E+03 0.14009378E-05
 0.54128558E+03 0.13265185E-05
 0.54509745E+03 0.12549768E-05
 0.54890932E+03 0.11862636E-05
 0.55272119E+03 0.11203268E-05
 0.55653306E+03 0.10571113E-05
 0.56034493E+03 0.99655932E-06
 0.56415680E+03 0.93861076E-06
 0.56796867E+03 0.88320340E-06
 0.57178054E+03 0.83027327E-06
 0.57559241E+03 0.77975478E-06
 0.57940428E+03 0.73158115E-06
 0.58321615E+03 0.68568446E-06
 0.58702802E+03 0.64199612E-06
 0.59083989E+03 0.60044696E-06
 0.59465176E+03 0.56096755E-06
 0.59846363E+03 0.52348836E-06
 0.60227550E+03 0.48794002E-06
 0.60608737E+03 0.45425344E-06
 0.60989924E+03 0.42236014E-06
 0.61371111E+03 0.39219231E-06
 0.61752298E+03 0.36368303E-06
 0.62133485E+03 0.33676638E-06
 0.62514672E+03 0.31137768E-06
 0.62895859E+03 0.28745352E-06
 0.63277046E+03 0.26493187E-06
 0.63658233E+03 0.24375229E-06
 0.64039420E+03 0.22385587E-06
 0.64420607E+03 0.20518546E-06
 0.64801794E+03 0.18768558E-06
 0.65182981E+03 0.17130258E-06
 0.65564168E+03 0.15598458E-06
 0.65945355E+03 0.14168157E-06
 0.66326542E+03 0.12834531E-06
 0.66707729E+03 0.11592940E-06
 0.67088916E+03 0.10438923E-06
 0.67279510E+03 0.98934073E-07
 0.67470103E+03 0.93681896E-07
 0.67660697E+03 0.88627603E-07
 0.67851290E+03 0.83766194E-07
 0.68041884E+03 0.79092773E-07
 0.68232477E+03 0.74602536E-07
 0.68423071E+03 0.70290776E-07
 0.68613665E+03 0.66152877E-07
 0.68804258E+03 0.62184312E-07
 0.68994852E+03 0.58380642E-07
 0.69185445E+03 0.54737510E-07
 0.69376039E+03 0.51250641E-07
 0.69566632E+03 0.47915840E-07
 0.69757226E+03 0.44728985E-07
 0.69947819E+03 0.41686032E-07
 0.70138413E+03 0.38783006E-07
 0.70329006E+03 0.36016004E-07
 0.70519600E+03 0.33381187E-07
 0.70710193E+03 0.30874787E-07
 0.70900787E+03 0.28493097E-07
 0.71091380E+03 0.26232472E-07
 0.71281974E+03 0.24089335E-07
 0.71472567E+03 0.22060166E-07
 0.71663161E+03 0.20141511E-07
 0.71853754E+03 0.18329975E-07
 0.72044348E+03 0.16622228E-07
 0.72234941E+03 0.15015006E-07
 0.72330238E+03 0.14248089E-07
 0.72425535E+03 0.13505109E-07
 0.72520832E+03 0.12785678E-07
 0.72616128E+03 0.12089409E-07
 0.72711425E+03 0.11415926E-07
 0.72806722E+03 0.10764851E-07
 0.72902019E+03 0.10135817E-07
 0.72997315E+03 0.95284577E-08
 0.73092612E+03 0.89424149E-08
 0.73187909E+03 0.83773355E-08
 0.73283206E+03 0.78328715E-08
 0.73378502E+03 0.73086829E-08
 0.73473799E+03 0.68044357E-08
 0.73569096E+03 0.63198024E-08
 0.73664393E+03 0.58544637E-08
 0.73759689E+03 0.54081089E-08
 0.73854986E+03 0.49804360E-08
 0.73950283E+03 0.45711514E-08
 0.74045580E+03 0.41799738E-08
 0.74140876E+03 0.38066329E-08
 0.74236173E+03 0.34508705E-08
 0.74331470E+03 0.31124441E-08
 0.74379118E+03 0.29496604E-08
 0.74426767E+03 0.27911269E-08
 0.74474415E+03 0.26368184E-08
 0.74522063E+03 0.24867105E-08
 0.74569712E+03 0.23407807E-08
 0.74617360E+03 0.21990080E-08
 0.74665009E+03 0.20613731E-08
 0.74712657E+03 0.19278583E-08
 0.74760305E+03 0.17984487E-08
 0.74807954E+03 0.16731308E-08
 0.74855602E+03 0.15518930E-08
 0.74903250E+03 0.14347280E-08
 0.74950899E+03 0.13216311E-08
 0.74998547E+03 0.12126008E-08
 0.75046196E+03 0.11076398E-08
 0.75093844E+03 0.10067552E-08
 0.75141492E+03 0.90995913E-09
 0.75165317E+03 0.86309978E-09
 0.75189141E+03 0.81727001E-09
 0.75212965E+03 0.77247318E-09
 0.75236789E+03 0.72871317E-09
 0.75260613E+03 0.68599455E-09
 0.75284437E+03 0.64432255E-09
 0.75308262E+03 0.60370306E-09
 0.75332086E+03 0.56414256E-09
 0.75355910E+03 0.52564836E-09
 0.75379734E+03 0.48822880E-09
 0.75403558E+03 0.45189339E-09
 0.75427383E+03 0.41665288E-09
 0.75451207E+03 0.38251930E-09
 0.75475031E+03 0.34950611E-09
 0.75856218E+03 0.10000000E-21
