# Best estimate of distribution function at Earth, see astro-ph/0401113
#u [km/s]       f/u [(km/s)^(-2)
 0.10000000E-12 0.11704253E-20
 0.10000000E-02 0.11704253E-10
 0.20000000E-02 0.23408507E-10
 0.30000000E-02 0.35112760E-10
 0.40000000E-02 0.46817012E-10
 0.50000000E-02 0.58521266E-10
 0.60000000E-02 0.70225520E-10
 0.70000000E-02 0.81929773E-10
 0.80000000E-02 0.93634025E-10
 0.90000000E-02 0.10533828E-09
 0.10000000E-01 0.11704253E-09
 0.99275862E-01 0.11619498E-08
 0.18855172E+00 0.22068571E-08
 0.27782759E+00 0.32517644E-08
 0.36710345E+00 0.42966717E-08
 0.45637931E+00 0.53415789E-08
 0.54565517E+00 0.63864864E-08
 0.63493103E+00 0.74313936E-08
 0.72420690E+00 0.84763009E-08
 0.81348276E+00 0.95212082E-08
 0.90275862E+00 0.10566115E-07
 0.99203448E+00 0.11611023E-07
 0.10813103E+01 0.12655930E-07
 0.11705862E+01 0.13700837E-07
 0.12598621E+01 0.14745744E-07
 0.13491379E+01 0.15790652E-07
 0.14384138E+01 0.16835559E-07
 0.15276897E+01 0.17880466E-07
 0.16169655E+01 0.18925374E-07
 0.17062414E+01 0.19970281E-07
 0.17955172E+01 0.21015189E-07
 0.18847931E+01 0.22060096E-07
 0.19740690E+01 0.23105002E-07
 0.20633448E+01 0.24149910E-07
 0.21526207E+01 0.25194818E-07
 0.22418966E+01 0.26239724E-07
 0.23311724E+01 0.27284632E-07
 0.24204483E+01 0.28329539E-07
 0.25097241E+01 0.29374447E-07
 0.25990000E+01 0.30419354E-07
 0.26000000E+01 0.30431058E-07
 0.30000000E+01 0.35112760E-07
 0.34000000E+01 0.41723235E-07
 0.38000000E+01 0.51743442E-07
 0.42000000E+01 0.66163745E-07
 0.46000000E+01 0.77941280E-07
 0.50000000E+01 0.82981312E-07
 0.54000000E+01 0.83497617E-07
 0.58000000E+01 0.85352288E-07
 0.62000000E+01 0.10178305E-06
 0.66000000E+01 0.10070713E-06
 0.70000000E+01 0.98498446E-07
 0.74000000E+01 0.99752024E-07
 0.78000000E+01 0.99367822E-07
 0.82000000E+01 0.96264696E-07
 0.86000000E+01 0.95073552E-07
 0.90000000E+01 0.17438751E-06
 0.94000000E+01 0.23053936E-06
 0.98000000E+01 0.29567249E-06
 0.10200000E+02 0.33152971E-06
 0.10600000E+02 0.34576754E-06
 0.11000000E+02 0.35009241E-06
 0.11400000E+02 0.38232851E-06
 0.11800000E+02 0.37097696E-06
 0.12200000E+02 0.40548348E-06
 0.12600000E+02 0.42950797E-06
 0.13000000E+02 0.44567154E-06
 0.13400000E+02 0.47409836E-06
 0.13800000E+02 0.49611372E-06
 0.14200000E+02 0.51330265E-06
 0.14600000E+02 0.51873968E-06
 0.15000000E+02 0.52404392E-06
 0.15500000E+02 0.55533537E-06
 0.16000000E+02 0.57771032E-06
 0.16500000E+02 0.61194224E-06
 0.17000000E+02 0.63514618E-06
 0.17500000E+02 0.66411114E-06
 0.18000000E+02 0.69393089E-06
 0.19000000E+02 0.74521879E-06
 0.20000000E+02 0.78772430E-06
 0.22000000E+02 0.89744841E-06
 0.24000000E+02 0.10164450E-05
 0.26000000E+02 0.11916366E-05
 0.28000000E+02 0.12700356E-05
 0.30000000E+02 0.14746307E-05
 0.32000000E+02 0.16613180E-05
 0.35000000E+02 0.19171825E-05
 0.38000000E+02 0.21100195E-05
 0.41000000E+02 0.23628195E-05
 0.44000000E+02 0.26457739E-05
 0.47000000E+02 0.29302553E-05
 0.50000000E+02 0.33115206E-05
 0.53000000E+02 0.36154458E-05
 0.56000000E+02 0.39030418E-05
 0.59000000E+02 0.41440761E-05
 0.62000000E+02 0.44500640E-05
 0.65000000E+02 0.47479437E-05
 0.68000000E+02 0.50920676E-05
 0.71000000E+02 0.53337669E-05
 0.78787879E+02 0.59154081E-05
 0.88383838E+02 0.65582923E-05
 0.97979798E+02 0.71742048E-05
 0.10757576E+03 0.77601854E-05
 0.11717172E+03 0.83133312E-05
 0.12676768E+03 0.88308290E-05
 0.13636364E+03 0.93099913E-05
 0.14595960E+03 0.97482954E-05
 0.15555556E+03 0.10143423E-04
 0.16515152E+03 0.10493304E-04
 0.17474747E+03 0.10796154E-04
 0.18434343E+03 0.11050510E-04
 0.19393939E+03 0.11255273E-04
 0.20353535E+03 0.11409729E-04
 0.21313131E+03 0.11513578E-04
 0.22272727E+03 0.11566951E-04
 0.23232323E+03 0.11570416E-04
 0.24191919E+03 0.11524987E-04
 0.25151515E+03 0.11432110E-04
 0.26111111E+03 0.11293653E-04
 0.27070707E+03 0.11111883E-04
 0.28030303E+03 0.10889434E-04
 0.28989899E+03 0.10629272E-04
 0.29949495E+03 0.10334651E-04
 0.30909091E+03 0.10009065E-04
 0.31868687E+03 0.96561976E-05
 0.32828283E+03 0.92798646E-05
 0.33787879E+03 0.88839631E-05
 0.34747475E+03 0.84724119E-05
 0.35707071E+03 0.80491004E-05
 0.36666667E+03 0.76178353E-05
 0.37626263E+03 0.71822929E-05
 0.38585859E+03 0.67459760E-05
 0.39545455E+03 0.63121742E-05
 0.40505051E+03 0.58839324E-05
 0.41464646E+03 0.54640240E-05
 0.42424242E+03 0.50549302E-05
 0.43383838E+03 0.46588269E-05
 0.44343434E+03 0.42775771E-05
 0.45303030E+03 0.39127297E-05
 0.46262626E+03 0.35655235E-05
 0.47222222E+03 0.32368968E-05
 0.48181818E+03 0.29275004E-05
 0.49141414E+03 0.26377165E-05
 0.50101010E+03 0.23676782E-05
 0.51060606E+03 0.21172929E-05
 0.52020202E+03 0.18862671E-05
 0.52979798E+03 0.16741318E-05
 0.53939394E+03 0.14802686E-05
 0.54898990E+03 0.13039350E-05
 0.55858586E+03 0.11442899E-05
 0.56818182E+03 0.10004168E-05
 0.57777778E+03 0.87134630E-06
 0.58737374E+03 0.75607622E-06
 0.59696970E+03 0.65359002E-06
 0.60656566E+03 0.56287291E-06
 0.61616162E+03 0.48292579E-06
 0.62575758E+03 0.41277713E-06
 0.63535354E+03 0.35149249E-06
 0.64494949E+03 0.29818217E-06
 0.65454545E+03 0.25200696E-06
 0.66414141E+03 0.21218203E-06
 0.67373737E+03 0.17797947E-06
 0.68333333E+03 0.14872926E-06
 0.69292929E+03 0.12381924E-06
 0.70252525E+03 0.10269400E-06
 0.71212121E+03 0.84853001E-07
 0.72171717E+03 0.69848086E-07
 0.73131313E+03 0.57280521E-07
 0.74090909E+03 0.46797704E-07
 0.75050505E+03 0.38089672E-07
 0.76010101E+03 0.30885525E-07
 0.76969697E+03 0.24949842E-07
 0.77929293E+03 0.20079163E-07
 0.78888889E+03 0.16098612E-07
 0.79848485E+03 0.12858675E-07
 0.80808081E+03 0.10232196E-07
 0.81767677E+03 0.81115978E-08
 0.82727273E+03 0.64063224E-08
 0.83686869E+03 0.50405272E-08
 0.84646465E+03 0.39510078E-08
 0.85606061E+03 0.30853506E-08
 0.86565657E+03 0.24003015E-08
 0.87525253E+03 0.18603374E-08
 0.88484848E+03 0.14364224E-08
 0.89444444E+03 0.11049362E-08
 0.90404040E+03 0.84675282E-09
 0.91363636E+03 0.64645832E-09
 0.92323232E+03 0.49168707E-09
 0.93282828E+03 0.37256440E-09
 0.94242424E+03 0.28124071E-09
 0.95202020E+03 0.21150430E-09
 0.96161616E+03 0.15846173E-09
 0.97121212E+03 0.11827519E-09
 0.98080808E+03 0.87948208E-10
 0.99040404E+03 0.65151481E-10
 0.10000000E+04 0.48082330E-10
 0.10100000E+04 0.34893977E-10
 0.10302041E+04 0.18030888E-10
 0.10504082E+04 0.91628347E-11
 0.10706122E+04 0.45791843E-11
 0.10908163E+04 0.22505634E-11
 0.11110204E+04 0.10877740E-11
 0.11312245E+04 0.51704670E-12
 0.11514286E+04 0.24169292E-12
 0.11716327E+04 0.11110677E-12
 0.11918367E+04 0.50229504E-13
 0.12120408E+04 0.22331524E-13
 0.12322449E+04 0.97637872E-14
 0.12524490E+04 0.41981513E-14
 0.12726531E+04 0.17751580E-14
 0.12928571E+04 0.73816668E-15
 0.13130612E+04 0.30186284E-15
 0.13332653E+04 0.12139534E-15
 0.13534694E+04 0.48009901E-16
 0.13736735E+04 0.18672196E-16
 0.13938776E+04 0.71415931E-17
 0.14140816E+04 0.26861438E-17
 0.14342857E+04 0.99356690E-18
 0.14544898E+04 0.36140825E-18
 0.14746939E+04 0.12928001E-18
 0.14948980E+04 0.45477481E-19
 0.15151020E+04 0.15732310E-19
 0.15353061E+04 0.53520344E-20
 0.15555102E+04 0.17905028E-20
 0.15757143E+04 0.58906076E-21
 0.15959184E+04 0.19057834E-21
 0.16161224E+04 0.60633787E-22
 0.16363265E+04 0.18970677E-22
 0.16565306E+04 0.58368342E-23
 0.16767347E+04 0.17660279E-23
 0.16969388E+04 0.52546386E-24
 0.17171429E+04 0.15374909E-24
 0.17373469E+04 0.44239076E-25
 0.17575510E+04 0.12517646E-25
 0.17777551E+04 0.34830666E-26
 0.17979592E+04 0.95306556E-27
 0.18181633E+04 0.25645139E-27
 0.18383673E+04 0.67859089E-28
 0.18585714E+04 0.17657572E-28
 0.18787755E+04 0.45182826E-29
 0.18989796E+04 0.11369324E-29
 0.19191837E+04 0.28132878E-30
 0.19393878E+04 0.68455974E-31
 0.19595918E+04 0.16380443E-31
 0.19797959E+04 0.38543970E-32
 0.20000000E+04 0.89187335E-33
 0.20000010E+04 0.00000000E+00
